WaveLenght (nm)	Skylarr
350	0.596290464
350.01	0.596264008
350.02	0.596237793
350.03	0.596211475
350.04	0.596185389
350.05	0.596161154
350.06	0.596137224
350.07	0.596113768
350.08	0.596088491
350.09	0.596063756
350.1	0.596037914
350.11	0.596010738
350.12	0.595980758
350.13	0.595950349
350.14	0.59591733
350.15	0.59588299
350.16	0.595846026
350.17	0.595811552
350.18	0.595776749
350.19	0.595743893
350.2	0.595713097
350.21	0.595683812
350.22	0.595658016
350.23	0.595633228
350.24	0.595611589
350.25	0.59559018
350.26	0.595569751
350.27	0.595549555
350.28	0.595528644
350.29	0.595505146
350.3	0.595478566
350.31	0.595448835
350.32	0.595417078
350.33	0.595382719
350.34	0.595347724
350.35	0.59531361
350.36	0.595280883
350.37	0.595250319
350.38	0.595221206
350.39	0.595193647
350.4	0.595166701
350.41	0.595141797
350.42	0.595117617
350.43	0.595092756
350.44	0.59506672
350.45	0.595041054
350.46	0.595014261
350.47	0.594986121
350.48	0.594958599
350.49	0.594931121
350.5	0.594905141
350.51	0.594880348
350.52	0.594856897
350.53	0.59483316
350.54	0.594806809
350.55	0.594779226
350.56	0.594749879
350.57	0.594718657
350.58	0.594686857
350.59	0.594653943
350.6	0.594621014
350.61	0.594589625
350.62	0.59455923
350.63	0.594531673
350.64	0.594506979
350.65	0.594483719
350.66	0.594461578
350.67	0.594439784
350.68	0.594418537
350.69	0.594395238
350.7	0.594369153
350.71	0.594342604
350.72	0.59431275
350.73	0.594281356
350.74	0.594250338
350.75	0.594217112
350.76	0.594183976
350.77	0.594153508
350.78	0.594121911
350.79	0.59409309
350.8	0.594062181
350.81	0.59403235
350.82	0.594003442
350.83	0.593976586
350.84	0.593949858
350.85	0.593924393
350.86	0.593899988
350.87	0.59387505
350.88	0.593848751
350.89	0.593822696
350.9	0.593795879
350.91	0.593768714
350.92	0.593739313
350.93	0.593709874
350.94	0.593678765
350.95	0.593647567
350.96	0.5936159
350.97	0.593585286
350.98	0.593557149
350.99	0.593529864
351	0.593505514
351.01	0.593483204
351.02	0.5934619
351.03	0.593441357
351.04	0.593422049
351.05	0.593402078
351.06	0.593380797
351.07	0.593355455
351.08	0.593328963
351.09	0.593299934
351.1	0.593268784
351.11	0.593233995
351.12	0.593193965
351.13	0.59315249
351.14	0.593108673
351.15	0.593068548
351.16	0.593033581
351.17	0.59300354
351.18	0.592977248
351.19	0.592952892
351.2	0.592929843
351.21	0.59290943
351.22	0.592887484
351.23	0.592864468
351.24	0.592839409
351.25	0.59281212
351.26	0.592783247
351.27	0.592753685
351.28	0.592724165
351.29	0.592693655
351.3	0.592662218
351.31	0.592633123
351.32	0.592603548
351.33	0.592574083
351.34	0.592545182
351.35	0.59251688
351.36	0.592488218
351.37	0.592461601
351.38	0.592433192
351.39	0.592405208
351.4	0.592378072
351.41	0.592350195
351.42	0.592320513
351.43	0.592289187
351.44	0.592253968
351.45	0.592218999
351.46	0.592183424
351.47	0.592148197
351.48	0.592113492
351.49	0.592082427
351.5	0.592053183
351.51	0.592029288
351.52	0.592005905
351.53	0.591986932
351.54	0.59196682
351.55	0.591946465
351.56	0.591921213
351.57	0.591890458
351.58	0.591855863
351.59	0.591815406
351.6	0.591771723
351.61	0.591727538
351.62	0.591686818
351.63	0.59165338
351.64	0.591627775
351.65	0.59160646
351.66	0.59158784
351.67	0.591569541
351.68	0.591550488
351.69	0.591529542
351.7	0.591506495
351.71	0.591482314
351.72	0.591456474
351.73	0.591429362
351.74	0.591400265
351.75	0.591371405
351.76	0.591342448
351.77	0.591314474
351.78	0.591286642
351.79	0.591258699
351.8	0.591230903
351.81	0.591204054
351.82	0.591177036
351.83	0.591152425
351.84	0.591127469
351.85	0.591102813
351.86	0.591077973
351.87	0.591053343
351.88	0.59103031
351.89	0.591008798
351.9	0.590986687
351.91	0.590964212
351.92	0.590939307
351.93	0.590911103
351.94	0.590880655
351.95	0.590848555
351.96	0.590815538
351.97	0.590783351
351.98	0.59075401
351.99	0.590726751
352	0.590702495
352.01	0.590680257
352.02	0.590659983
352.03	0.590639413
352.04	0.590619189
352.05	0.59059625
352.06	0.590571283
352.07	0.590544048
352.08	0.590514309
352.09	0.590482007
352.1	0.590449235
352.11	0.590416163
352.12	0.590383963
352.13	0.590355303
352.14	0.590329193
352.15	0.590307221
352.16	0.590286222
352.17	0.590266772
352.18	0.590244818
352.19	0.590222841
352.2	0.590198599
352.21	0.590170513
352.22	0.590139952
352.23	0.590106163
352.24	0.590070767
352.25	0.590034137
352.26	0.589998939
352.27	0.589965372
352.28	0.589935496
352.29	0.589908896
352.3	0.589884326
352.31	0.589862624
352.32	0.589841772
352.33	0.58982159
352.34	0.589802758
352.35	0.58978341
352.36	0.589763672
352.37	0.5897433
352.38	0.589721471
352.39	0.589696231
352.4	0.589668408
352.41	0.589640195
352.42	0.589611159
352.43	0.589582534
352.44	0.589550731
352.45	0.589521842
352.46	0.589496086
352.47	0.589472473
352.48	0.589449704
352.49	0.589425704
352.5	0.589397255
352.51	0.589367404
352.52	0.589327978
352.53	0.589286025
352.54	0.589239109
352.55	0.589195086
352.56	0.58915427
352.57	0.589120062
352.58	0.589092012
352.59	0.589069278
352.6	0.589051591
352.61	0.589036915
352.62	0.589023546
352.63	0.589011151
352.64	0.588998114
352.65	0.588986245
352.66	0.58897356
352.67	0.58895893
352.68	0.58894265
352.69	0.588925125
352.7	0.588901001
352.71	0.588868782
352.72	0.588824316
352.73	0.588768759
352.74	0.588710267
352.75	0.58865404
352.76	0.588609383
352.77	0.588575287
352.78	0.58855147
352.79	0.588533875
352.8	0.588520822
352.81	0.588507278
352.82	0.588493038
352.83	0.588476385
352.84	0.588457763
352.85	0.588435368
352.86	0.588410444
352.87	0.588382194
352.88	0.58834969
352.89	0.588315238
352.9	0.588281415
352.91	0.588248997
352.92	0.588219951
352.93	0.588192462
352.94	0.588167567
352.95	0.58814356
352.96	0.588122171
352.97	0.588101976
352.98	0.588081866
352.99	0.58806182
353	0.58803955
353.01	0.588014818
353.02	0.587988248
353.03	0.587960695
353.04	0.587931927
353.05	0.587903103
353.06	0.587872861
353.07	0.587843628
353.08	0.587814223
353.09	0.587786464
353.1	0.587757215
353.11	0.587728042
353.12	0.587698146
353.13	0.58766775
353.14	0.587638629
353.15	0.587612366
353.16	0.587585228
353.17	0.587559385
353.18	0.58753298
353.19	0.58750682
353.2	0.587482245
353.21	0.587459146
353.22	0.587436023
353.23	0.587412617
353.24	0.587387593
353.25	0.587361162
353.26	0.587332432
353.27	0.587300698
353.28	0.587268588
353.29	0.587237139
353.3	0.587205325
353.31	0.587176505
353.32	0.587150028
353.33	0.587128396
353.34	0.587108033
353.35	0.587087404
353.36	0.587067083
353.37	0.587044186
353.38	0.587018912
353.39	0.586989456
353.4	0.586956036
353.41	0.586918153
353.42	0.586877807
353.43	0.586838197
353.44	0.586801071
353.45	0.586768875
353.46	0.58674118
353.47	0.586717689
353.48	0.586697042
353.49	0.586678043
353.5	0.586660881
353.51	0.58664335
353.52	0.586624887
353.53	0.586603661
353.54	0.586580778
353.55	0.586555511
353.56	0.586528776
353.57	0.586499573
353.58	0.586470176
353.59	0.586437821
353.6	0.586402851
353.61	0.586368522
353.62	0.586335414
353.63	0.586304216
353.64	0.586275332
353.65	0.586248775
353.66	0.586224998
353.67	0.586202189
353.68	0.586180472
353.69	0.58615729
353.7	0.586133249
353.71	0.586106101
353.72	0.586077211
353.73	0.58604561
353.74	0.586014923
353.75	0.585982447
353.76	0.585951215
353.77	0.585919689
353.78	0.585891027
353.79	0.585865435
353.8	0.585841268
353.81	0.585818169
353.82	0.585795774
353.83	0.585774961
353.84	0.585753313
353.85	0.585729478
353.86	0.585701976
353.87	0.585672536
353.88	0.585638062
353.89	0.585602863
353.9	0.58556672
353.91	0.585531527
353.92	0.585497593
353.93	0.585465353
353.94	0.585436155
353.95	0.585408513
353.96	0.585382626
353.97	0.58535865
353.98	0.585333934
353.99	0.58531013
354	0.585286902
354.01	0.58526529
354.02	0.585243141
354.03	0.585221186
354.04	0.585197744
354.05	0.585173757
354.06	0.585148242
354.07	0.585122159
354.08	0.585094589
354.09	0.585067192
354.1	0.585039403
354.11	0.585010831
354.12	0.584983397
354.14	0.584956528
354.15	0.584928011
354.16	0.584899344
354.17	0.584870761
354.18	0.584841439
354.19	0.584812054
354.2	0.584781845
354.21	0.58475268
354.22	0.584726027
354.23	0.584699771
354.24	0.584675977
354.25	0.584652704
354.26	0.584629854
354.27	0.584606171
354.28	0.584583077
354.29	0.584557869
354.3	0.584529362
354.31	0.584498111
354.32	0.584463766
354.33	0.58442678
354.34	0.584389329
354.35	0.584354174
354.36	0.584323681
354.37	0.584294679
354.38	0.584269312
354.39	0.584245987
354.4	0.584224188
354.41	0.58420252
354.42	0.584178553
354.43	0.584153992
354.44	0.584127359
354.45	0.58409995
354.46	0.584072592
354.47	0.584046113
354.48	0.584020349
354.49	0.583994508
354.5	0.58396811
354.51	0.583942839
354.52	0.583917684
354.53	0.583893296
354.54	0.583869683
354.55	0.583844876
354.56	0.583818921
354.57	0.583792868
354.58	0.583766429
354.59	0.583740107
354.6	0.583714314
354.61	0.583686545
354.62	0.583657868
354.63	0.583628219
354.64	0.583599818
354.65	0.583570506
354.66	0.583541184
354.67	0.583510092
354.68	0.583479512
354.69	0.58345028
354.7	0.58342152
354.71	0.583394925
354.72	0.583368472
354.73	0.583343435
354.74	0.583319256
354.75	0.583296041
354.76	0.583272915
354.77	0.583248825
354.78	0.583223801
354.79	0.583199463
354.8	0.583175409
354.81	0.583151954
354.82	0.58312852
354.83	0.583107163
354.84	0.583084043
354.85	0.583061545
354.86	0.583038201
354.87	0.583011048
354.88	0.582980252
354.89	0.582944079
354.9	0.582906612
354.91	0.582868459
354.92	0.58283125
354.93	0.582793952
354.94	0.582761569
354.95	0.582730983
354.96	0.582705117
354.97	0.582682489
354.98	0.582660302
354.99	0.58263923
355	0.582618438
355.01	0.58259587
355.02	0.58257332
355.03	0.58254929
355.04	0.582523454
355.05	0.582496358
355.06	0.582469733
355.07	0.58244311
355.08	0.582417597
355.09	0.582390796
355.1	0.582364371
355.11	0.582336549
355.12	0.582308515
355.13	0.582282367
355.14	0.582254552
355.15	0.582228223
355.16	0.582201171
355.17	0.582175619
355.18	0.582151433
355.19	0.58212701
355.2	0.582101552
355.21	0.582076306
355.22	0.582050484
355.23	0.582024362
355.24	0.581998223
355.25	0.581971675
355.26	0.581943303
355.27	0.58191488
355.28	0.581885971
355.29	0.581859176
355.3	0.58183297
355.31	0.581808611
355.32	0.581783644
355.33	0.581758655
355.34	0.58173332
355.35	0.581708827
355.36	0.581683892
355.37	0.581659715
355.38	0.581633696
355.39	0.581607422
355.4	0.581580476
355.41	0.581551235
355.42	0.58152118
355.43	0.581490925
355.44	0.581460112
355.45	0.581430454
355.46	0.581401911
355.47	0.581375304
355.48	0.581351938
355.49	0.581327482
355.5	0.581304394
355.51	0.581280567
355.52	0.581258272
355.53	0.581235736
355.54	0.581210546
355.55	0.581183251
355.56	0.58115331
355.57	0.581120698
355.58	0.58108463
355.59	0.581046787
355.6	0.581009709
355.61	0.580976629
355.62	0.580946946
355.63	0.580920666
355.64	0.580896598
355.65	0.580874043
355.66	0.580852885
355.67	0.580833217
355.68	0.58081512
355.69	0.580798055
355.7	0.580781355
355.71	0.58076279
355.72	0.58074217
355.73	0.580719365
355.74	0.580693575
355.75	0.580663639
355.76	0.58063004
355.77	0.580591913
355.78	0.580552133
355.79	0.580513568
355.8	0.580477089
355.81	0.580444193
355.82	0.580416126
355.83	0.580391502
355.84	0.580368867
355.85	0.580350042
355.86	0.580332631
355.87	0.580316937
355.88	0.580300757
355.89	0.580283206
355.9	0.580263438
355.91	0.580240123
355.92	0.580215381
355.93	0.58018701
355.94	0.580156315
355.95	0.580124104
355.96	0.580088548
355.97	0.580053809
355.98	0.580019519
355.99	0.579987118
356	0.579956286
356.01	0.57992812
356.02	0.579902902
356.03	0.579879309
356.04	0.579856001
356.05	0.579834147
356.06	0.579811747
356.07	0.579788204
356.08	0.579763395
356.09	0.579738468
356.1	0.579714007
356.11	0.579689446
356.12	0.579663606
356.13	0.579635811
356.14	0.579606483
356.15	0.579574959
356.16	0.579543551
356.17	0.579511469
356.18	0.579481695
356.19	0.579454443
356.2	0.57942962
356.21	0.579405161
356.22	0.579381069
356.23	0.579356614
356.24	0.579331873
356.25	0.579306617
356.26	0.579279644
356.27	0.579251805
356.28	0.579223
356.29	0.579193838
356.3	0.579162179
356.31	0.579131342
356.32	0.579101479
356.33	0.579072667
356.34	0.579044971
356.35	0.579019692
356.36	0.578995334
356.37	0.578970861
356.38	0.578947052
356.39	0.578923122
356.4	0.578899225
356.41	0.578875198
356.42	0.57885133
356.43	0.578826764
356.44	0.57880305
356.45	0.578778962
356.46	0.578754908
356.47	0.578730942
356.48	0.578706404
356.49	0.578680419
356.5	0.578655131
356.51	0.578629833
356.52	0.578604303
356.53	0.578579855
356.54	0.578556316
356.55	0.578533702
356.56	0.578511796
356.57	0.578490962
356.58	0.578468126
356.59	0.578443874
356.6	0.578417726
356.61	0.578386606
356.62	0.578354514
356.63	0.578316944
356.64	0.57827925
356.65	0.578240378
356.66	0.578206246
356.67	0.578169088
356.68	0.578134348
356.69	0.578099787
356.7	0.578066289
356.71	0.578036234
356.72	0.578006699
356.73	0.57797739
356.74	0.577947685
356.75	0.577920915
356.76	0.577893881
356.77	0.57786895
356.78	0.577845331
356.79	0.577822867
356.8	0.577801541
356.81	0.577777734
356.82	0.577754127
356.83	0.577728891
356.84	0.577702643
356.85	0.577676133
356.86	0.577648006
356.87	0.5776203
356.88	0.577593109
356.89	0.577566612
356.9	0.577543428
356.91	0.57752087
356.92	0.577498324
356.93	0.577476968
356.94	0.577455448
356.95	0.577434846
356.96	0.577413785
356.97	0.577393718
356.98	0.577372343
356.99	0.577348619
357	0.5773255
357.01	0.577299615
357.02	0.577277455
357.03	0.577255734
357.04	0.577233752
357.05	0.577210847
357.06	0.577182183
357.07	0.577151452
357.08	0.577115336
357.09	0.577073328
357.1	0.577026531
357.11	0.576974424
357.12	0.576925757
357.13	0.576889254
357.14	0.576858449
357.15	0.576832662
357.16	0.57680967
357.17	0.576789862
357.18	0.576772302
357.19	0.576755725
357.2	0.576740582
357.21	0.576725248
357.22	0.576708596
357.23	0.576689239
357.24	0.576667349
357.25	0.576643204
357.26	0.576618252
357.27	0.576591175
357.28	0.576563574
357.29	0.576533878
357.3	0.57650231
357.31	0.576468809
357.32	0.57643702
357.33	0.576405533
357.34	0.576375028
357.35	0.576346807
357.36	0.576319474
357.37	0.576295249
357.38	0.576273311
357.39	0.57625327
357.4	0.576234829
357.41	0.576214822
357.42	0.576193322
357.43	0.576171951
357.44	0.576148542
357.45	0.576125616
357.46	0.57609875
357.47	0.576067233
357.48	0.576032625
357.49	0.575995573
357.5	0.575963277
357.51	0.575934915
357.52	0.575909932
357.53	0.575887898
357.54	0.575867599
357.55	0.575849665
357.56	0.575831472
357.57	0.575811855
357.58	0.57578922
357.59	0.575762765
357.6	0.575732001
357.61	0.57569831
357.62	0.575664182
357.63	0.575630916
357.64	0.575597653
357.65	0.575567247
357.66	0.575538703
357.67	0.575513438
357.68	0.575491013
357.69	0.575470219
357.7	0.575449957
357.71	0.57542943
357.72	0.575408635
357.73	0.575386166
357.74	0.575360934
357.75	0.575333833
357.76	0.575304057
357.77	0.575274527
357.78	0.575244242
357.79	0.575213424
357.8	0.575184961
357.81	0.575157102
357.82	0.575130971
357.83	0.575105087
357.84	0.575080816
357.85	0.575057886
357.86	0.575036232
357.87	0.575016815
357.88	0.574999182
357.89	0.574981017
357.9	0.574960178
357.91	0.574937967
357.92	0.574912481
357.93	0.57488416
357.94	0.574852652
357.95	0.574818326
357.96	0.57478265
357.97	0.574745767
357.98	0.57471074
357.99	0.574679277
358	0.574651806
358.01	0.574624937
358.02	0.574600739
358.03	0.574578811
358.04	0.574557718
358.05	0.574537497
358.06	0.574516705
358.07	0.574496795
358.08	0.574474583
358.09	0.574453141
358.1	0.574430833
358.11	0.574409571
358.12	0.57438926
358.13	0.574369618
358.14	0.574349349
358.15	0.574329683
358.16	0.57431031
358.17	0.574289158
358.18	0.574267416
358.19	0.57424158
358.2	0.574208192
358.21	0.574168048
358.22	0.574121851
358.23	0.574072828
358.24	0.574025825
358.25	0.573983476
358.26	0.573948896
358.27	0.573920906
358.28	0.573896567
358.29	0.573873476
358.3	0.573851593
358.31	0.573827363
358.32	0.573804414
358.33	0.573780745
358.34	0.573757613
358.35	0.573734216
358.36	0.573712072
358.37	0.573688586
358.38	0.573666905
358.39	0.573645209
358.4	0.57362425
358.41	0.573602209
358.42	0.573579778
358.43	0.573556654
358.44	0.57353336
358.45	0.573509257
358.46	0.57348517
358.47	0.573461721
358.48	0.573438049
358.49	0.573414095
358.5	0.573390995
358.51	0.573368741
358.52	0.573347755
358.53	0.573327032
358.54	0.573307986
358.55	0.573285347
358.56	0.573264607
358.57	0.573239611
358.58	0.5732124
358.59	0.573183618
358.6	0.573152635
358.61	0.573118721
358.62	0.573080886
358.63	0.573041067
358.64	0.572997871
358.65	0.572955646
358.66	0.572915227
358.67	0.572882043
358.68	0.57285277
358.69	0.572830723
358.7	0.572810411
358.71	0.572794989
358.72	0.572779658
358.73	0.572767181
358.74	0.572753439
358.75	0.572738795
358.76	0.572721727
358.77	0.572700383
358.78	0.572676108
358.79	0.572646591
358.8	0.572613082
358.81	0.572574098
358.82	0.572530943
358.83	0.572489278
358.84	0.572448996
358.85	0.572417855
358.86	0.57239103
358.87	0.572369393
358.88	0.572348283
358.89	0.572329588
358.9	0.572309481
358.91	0.572290583
358.92	0.572271578
358.93	0.572251085
358.94	0.57223009
358.95	0.572208088
358.96	0.572184709
358.97	0.572160745
358.98	0.57213674
358.99	0.572111376
359	0.572084986
359.01	0.572056639
359.02	0.572028367
359.03	0.572000393
359.04	0.571972445
359.05	0.571944807
359.06	0.571917367
359.07	0.571888832
359.08	0.571859717
359.09	0.571828517
359.1	0.571798638
359.11	0.571766917
359.12	0.571736543
359.13	0.571707824
359.14	0.571680557
359.15	0.571657545
359.16	0.571635109
359.17	0.571614009
359.18	0.571590637
359.19	0.571567683
359.2	0.571543018
359.21	0.57151881
359.22	0.571492787
359.23	0.571466299
359.24	0.571438008
359.25	0.571410175
359.26	0.571382574
359.27	0.571356326
359.28	0.571331349
359.29	0.571307065
359.3	0.571284008
359.31	0.571261282
359.32	0.571238818
359.33	0.571217673
359.34	0.571195516
359.35	0.571172607
359.36	0.571149573
359.37	0.571126583
359.38	0.57110312
359.39	0.5710782
359.4	0.571052018
359.41	0.57102292
359.42	0.570991766
359.43	0.570958674
359.44	0.57092203
359.45	0.570886379
359.46	0.570851065
359.47	0.570820172
359.48	0.57079204
359.49	0.570766546
359.5	0.570743588
359.51	0.570722082
359.52	0.570703045
359.53	0.570683722
359.54	0.570665224
359.55	0.570645041
359.56	0.570622672
359.57	0.570596212
359.58	0.570568996
359.59	0.57053956
359.6	0.570509979
359.61	0.570481744
359.62	0.570455104
359.63	0.570428573
359.64	0.570403988
359.65	0.570379398
359.66	0.570356419
359.67	0.570333522
359.68	0.570307889
359.69	0.570280648
359.7	0.570250668
359.71	0.570221166
359.72	0.570190163
359.73	0.570160901
359.74	0.570130393
359.75	0.570100294
359.76	0.570072082
359.77	0.570045788
359.78	0.57002245
359.79	0.570000874
359.8	0.56997976
359.81	0.569957301
359.82	0.569934377
359.83	0.569910124
359.84	0.569884277
359.85	0.569857828
359.86	0.569830719
359.87	0.569801519
359.88	0.569773711
359.89	0.569747369
359.9	0.569721592
359.91	0.569695646
359.92	0.569670254
359.93	0.569645153
359.94	0.569620316
359.95	0.569596682
359.96	0.569574089
359.97	0.569550718
359.98	0.569526633
359.99	0.569501135
360	0.569472976
360.01	0.569445341
360.02	0.569415045
360.03	0.569385722
360.04	0.569357604
360.05	0.569330003
360.06	0.56930385
360.07	0.569279907
360.08	0.569256827
360.09	0.569234851
360.1	0.569212591
360.11	0.569189739
360.12	0.569167371
360.13	0.569143285
360.14	0.569119962
360.15	0.569094636
360.16	0.569068292
360.17	0.569039766
360.18	0.569010413
360.19	0.568980917
360.2	0.568953023
360.21	0.568927397
360.22	0.568902807
360.23	0.5688804
360.24	0.568859404
360.25	0.568839218
360.26	0.568819365
360.27	0.568798783
360.28	0.568777481
360.29	0.568754622
360.3	0.568728822
360.31	0.568701273
360.32	0.568673349
360.33	0.568642255
360.34	0.568609593
360.35	0.568575818
360.36	0.568542641
360.37	0.568512927
360.38	0.568484617
360.39	0.568459975
360.4	0.56843563
360.41	0.56841007
360.42	0.568382049
360.43	0.568353101
360.44	0.568325975
360.45	0.56829809
360.46	0.568270111
360.47	0.568242814
360.48	0.568216554
360.49	0.568191663
360.5	0.568169703
360.51	0.56814824
360.52	0.568128419
360.53	0.568108717
360.54	0.568089973
360.55	0.568070981
360.56	0.568054014
360.57	0.568033669
360.58	0.568009861
360.59	0.567979818
360.6	0.567943512
360.61	0.567904891
360.62	0.567866733
360.63	0.567827397
360.64	0.56779067
360.65	0.567757849
