wl(nm),ref_hemi,HCRF
400.0000000000000,0.01785890583148475,0.02160834436185445
401.0000000000000,0.01733698024896666,0.02124442074817306
402.0000000000000,0.01686599095330556,0.02091812407931116
403.0000000000000,0.01651783047687233,0.02068235644072500
404.0000000000000,0.01629095518983195,0.02053315714450394
405.0000000000000,0.01614601494939193,0.02044313045067957
406.0000000000000,0.01607571550231355,0.02040548192896430
407.0000000000000,0.01602467990205160,0.02038236193804537
408.0000000000000,0.01599250536571869,0.02037472099774543
409.0000000000000,0.01597199441385319,0.02037360613598951
410.0000000000000,0.01592849818150941,0.02034560961794871
411.0000000000000,0.01587102697641698,0.02031569915713123
412.0000000000000,0.01584511064731907,0.02032028986543865
413.0000000000000,0.01586114110410034,0.02035417256370347
414.0000000000000,0.01589410835241801,0.02040197534826729
415.0000000000000,0.01592058525603279,0.02044252128675827
416.0000000000000,0.01596082571981840,0.02049350689165247
417.0000000000000,0.01600165358504494,0.02054334897372106
418.0000000000000,0.01604595525210866,0.02059541452722776
419.0000000000000,0.01609214237000720,0.02064757874220493
420.0000000000000,0.01613176040600311,0.02069767318579007
421.0000000000000,0.01614756858226518,0.02072640022024311
422.0000000000000,0.01617331464557124,0.02076198301804393
423.0000000000000,0.01620395943583360,0.02080071318885251
424.0000000000000,0.01625790406005414,0.02085637017158971
425.0000000000000,0.01631453896744630,0.02091762549736940
426.0000000000000,0.01634625306360954,0.02096031249357305
427.0000000000000,0.01634887806853346,0.02097627497521035
428.0000000000000,0.01636522504814476,0.02100023837139630
429.0000000000000,0.01639523259243128,0.02103855439459669
430.0000000000000,0.01640923176039576,0.02106320839055706
431.0000000000000,0.01641221799732733,0.02108143490720507
432.0000000000000,0.01643081767448025,0.02111284498107578
433.0000000000000,0.01645230727014208,0.02114469641315771
434.0000000000000,0.01647160177310363,0.02117375832688836
435.0000000000000,0.01649069274274304,0.02120092757845843
436.0000000000000,0.01651203353059001,0.02122951453704297
437.0000000000000,0.01653403204932978,0.02125446620044263
438.0000000000000,0.01655821770479100,0.02128191106986340
439.0000000000000,0.01658776405953000,0.02131287828668222
440.0000000000000,0.01663270188251420,0.02135559287439162
441.0000000000000,0.01670367006713867,0.02142362617856092
442.0000000000000,0.01677742861292763,0.02149082878653712
443.0000000000000,0.01685158210349076,0.02155837702657943
444.0000000000000,0.01693139660350177,0.02162716140156499
445.0000000000000,0.01702716817879084,0.02170594866334745
446.0000000000000,0.01711654569019833,0.02178149823851373
447.0000000000000,0.01721316881809734,0.02185973084427414
448.0000000000000,0.01733504182410217,0.02195850500753278
449.0000000000000,0.01747412425863336,0.02206843968016551
450.0000000000000,0.01762223134736476,0.02218133195735190
451.0000000000000,0.01778238412744517,0.02230585895962037
452.0000000000000,0.01796511923933539,0.02244578716446073
453.0000000000000,0.01815503499682931,0.02258898654405794
454.0000000000000,0.01834075719436678,0.02273105109535039
455.0000000000000,0.01852441452651277,0.02287195607900567
456.0000000000000,0.01870983626880820,0.02301361849069833
457.0000000000000,0.01890836384187520,0.02316926115757008
458.0000000000000,0.01908603375406593,0.02330752700915358
459.0000000000000,0.01924739458215818,0.02343549815892811
460.0000000000000,0.01939030395783680,0.02354884363690093
461.0000000000000,0.01951102222949007,0.02364732003973668
462.0000000000000,0.01960345303117744,0.02372235360326183
463.0000000000000,0.01968850311917661,0.02379463513800818
464.0000000000000,0.01977646132397310,0.02386656012124423
465.0000000000000,0.01987873573434670,0.02395192342065712
466.0000000000000,0.01997397434442124,0.02403476374526891
467.0000000000000,0.02004655133026934,0.02409954305262152
468.0000000000000,0.02010931242287519,0.02415572650067162
469.0000000000000,0.02018445375969863,0.02422637778793160
470.0000000000000,0.02025282045444265,0.02429057949729331
471.0000000000000,0.02029849145341693,0.02433892519787346
472.0000000000000,0.02034324311670176,0.02438515546722044
473.0000000000000,0.02039991541127170,0.02444153781411555
474.0000000000000,0.02045299612033965,0.02449515582262926
475.0000000000000,0.02050180441630644,0.02454818220636184
476.0000000000000,0.02055203776230397,0.02460084350090902
477.0000000000000,0.02063388822550890,0.02467604195480621
478.0000000000000,0.02071383212353033,0.02474983261594955
479.0000000000000,0.02078934134139085,0.02482018264707080
480.0000000000000,0.02088281397211766,0.02490281603795633
481.0000000000000,0.02101562900664162,0.02501796770102719
482.0000000000000,0.02117533739923854,0.02514831020201514
483.0000000000000,0.02134874218378229,0.02528919362560777
484.0000000000000,0.02155969203403375,0.02545888009146288
485.0000000000000,0.02181349407131699,0.02565880120361776
486.0000000000000,0.02211148616420841,0.02588885711930578
487.0000000000000,0.02246322348415731,0.02616194670877554
488.0000000000000,0.02288532271004262,0.02648560802056762
489.0000000000000,0.02338489567405486,0.02686574277526435
490.0000000000000,0.02394799512055285,0.02729472864649602
491.0000000000000,0.02458316095101995,0.02778365841660762
492.0000000000000,0.02530062325356006,0.02833539464726487
493.0000000000000,0.02611528524996302,0.02896488384931472
494.0000000000000,0.02701164827254354,0.02965646415406287
495.0000000000000,0.02800778590208231,0.03042473782139472
496.0000000000000,0.02912025128459964,0.03128506883968075
497.0000000000000,0.03035576061859670,0.03224556344834434
498.0000000000000,0.03170514105283043,0.03329703243087534
499.0000000000000,0.03313845862226683,0.03441585336706014
500.0000000000000,0.03469959678383668,0.03563367039620392
501.0000000000000,0.03638724465257209,0.03696178307563516
502.0000000000000,0.03822520390507339,0.03840901115688904
503.0000000000000,0.04020865580425472,0.03997792688201567
504.0000000000000,0.04234429213688584,0.04166647432390146
505.0000000000000,0.04461915794106987,0.04347408000169766
506.0000000000000,0.04708550385861224,0.04543220008880160
507.0000000000000,0.04973097412705740,0.04754122667366564
508.0000000000000,0.05249872043681911,0.04975160899475124
509.0000000000000,0.05544999953159929,0.05212065154328283
510.0000000000000,0.05854823483607646,0.05461076678780266
511.0000000000000,0.06182848274045730,0.05725299020178679
512.0000000000000,0.06529713125905404,0.06005420346715817
513.0000000000000,0.06890145050382854,0.06297750663063439
514.0000000000000,0.07256734199645490,0.06595565900349514
515.0000000000000,0.07638125232769331,0.06906532970915577
516.0000000000000,0.08013771063173575,0.07213924651310247
517.0000000000000,0.08383715369012884,0.07517434588344589
518.0000000000000,0.08743659211020458,0.07813825182123364
519.0000000000000,0.09082892924437071,0.08093959124495433
520.0000000000000,0.09400057203684666,0.08356868837069194
521.0000000000000,0.09687603634894718,0.08596305354592965
522.0000000000000,0.09942928291584308,0.08809659746577594
523.0000000000000,0.1015413182771169,0.08987798987349509
524.0000000000000,0.1031391437442843,0.09123494987922096
525.0000000000000,0.1042274312111484,0.09217737466153883
526.0000000000000,0.1048101898069633,0.09270207964623137
527.0000000000000,0.1048775688978199,0.09280338457900350
528.0000000000000,0.1044545985450423,0.09249868302301811
529.0000000000000,0.1036397046034922,0.09187235092853742
530.0000000000000,0.1024846260861398,0.09096427262150583
531.0000000000000,0.1010385459402883,0.08981557886242428
532.0000000000000,0.09933344148485464,0.08845207251880784
533.0000000000000,0.09745859836722384,0.08694817596732582
534.0000000000000,0.09544125144820753,0.08532698151803543
535.0000000000000,0.09335355335998471,0.08364667902593141
536.0000000000000,0.09122805782332430,0.08193226974040391
537.0000000000000,0.08912905404243915,0.08024346921034452
538.0000000000000,0.08704463039545336,0.07856337817765176
539.0000000000000,0.08504076404481595,0.07695016032314728
540.0000000000000,0.08304140713719813,0.07534045684704024
541.0000000000000,0.08125844343156650,0.07390967920014886
542.0000000000000,0.07954063140031779,0.07252657612529820
543.0000000000000,0.07794580703575811,0.07125116325552439
544.0000000000000,0.07646975328059819,0.07007117269107840
545.0000000000000,0.07516152713360291,0.06902975530888025
546.0000000000000,0.07395252069315884,0.06806759981910790
547.0000000000000,0.07289121595394048,0.06722727464808131
548.0000000000000,0.07191160088176614,0.06645425523565554
549.0000000000000,0.07106857546104446,0.06579492549499501
550.0000000000000,0.07024050343058541,0.06514423074445641
551.0000000000000,0.06948173135274961,0.06455057338222395
552.0000000000000,0.06874064947599207,0.06397204912435145
553.0000000000000,0.06806497690239624,0.06344167618750937
554.0000000000000,0.06740156244314888,0.06292479463231224
555.0000000000000,0.06675002291201618,0.06241122034583654
556.0000000000000,0.06606031809832835,0.06187036641509223
557.0000000000000,0.06543257317615922,0.06137829086893452
558.0000000000000,0.06476604271597301,0.06085008753578706
559.0000000000000,0.06411118658171297,0.06033574478766872
560.0000000000000,0.06351323971717394,0.05986299034067380
561.0000000000000,0.06287844665276229,0.05936039173109992
562.0000000000000,0.06216384122886262,0.05878807518897783
563.0000000000000,0.06137518365630811,0.05815463499134544
564.0000000000000,0.06051660868809988,0.05746469323986478
565.0000000000000,0.05959581483408066,0.05672672974281533
566.0000000000000,0.05861458820701339,0.05593184015308785
567.0000000000000,0.05758189326879695,0.05509854728256099
568.0000000000000,0.05650258936689253,0.05422700461684190
569.0000000000000,0.05538241690559691,0.05332206366788272
570.0000000000000,0.05426269405731474,0.05241761723228042
571.0000000000000,0.05310871799238186,0.05148421164230495
572.0000000000000,0.05199594901915891,0.05058800898969662
573.0000000000000,0.05092103142685675,0.04972318946229824
574.0000000000000,0.04988222319947360,0.04888826443584295
575.0000000000000,0.04890722810636237,0.04810794859588878
576.0000000000000,0.04796469987543660,0.04735752828685467
577.0000000000000,0.04710802982189996,0.04667751476789154
578.0000000000000,0.04630359278371180,0.04604053268954952
579.0000000000000,0.04554811048066254,0.04544553151186465
580.0000000000000,0.04483846293007814,0.04488860111924742
581.0000000000000,0.04417073938860467,0.04436830417307534
582.0000000000000,0.04354540030036462,0.04388246032881130
583.0000000000000,0.04295441950591421,0.04343150504884667
584.0000000000000,0.04240358580606012,0.04300805928875316
585.0000000000000,0.04191272257227743,0.04263011903554347
586.0000000000000,0.04143054111527144,0.04226062761451442
587.0000000000000,0.04097766647964615,0.04192075600492476
588.0000000000000,0.04057744714416105,0.04162014919771690
589.0000000000000,0.04020765773579028,0.04134276646348919
590.0000000000000,0.03986386850302685,0.04108794925269572
591.0000000000000,0.03956736924148023,0.04087061717922629
592.0000000000000,0.03927490362427482,0.04065608443884736
593.0000000000000,0.03902675137823312,0.04047773640840369
594.0000000000000,0.03880150466827043,0.04031789129023120
595.0000000000000,0.03861851921587219,0.04019228418757549
596.0000000000000,0.03841712040595986,0.04005174547326686
597.0000000000000,0.03823708730980383,0.03992871839332461
598.0000000000000,0.03805953867933329,0.03981088885046720
599.0000000000000,0.03786305758844107,0.03967424522162648
600.0000000000000,0.03766877631384744,0.03954140048836052
601.0000000000000,0.03743809588564896,0.03937647570896984
602.0000000000000,0.03719264366510180,0.03919689303897027
603.0000000000000,0.03691361913494546,0.03899686040358131
604.0000000000000,0.03658532808875279,0.03874569807950852
605.0000000000000,0.03624327550521313,0.03849322107566822
606.0000000000000,0.03585284745361284,0.03820384290700559
607.0000000000000,0.03541782869760429,0.03787407479065261
608.0000000000000,0.03496137012678990,0.03752700195597762
609.0000000000000,0.03448292161806625,0.03716523456973150
610.0000000000000,0.03399865875723809,0.03680218551139600
611.0000000000000,0.03351191523601003,0.03643595610052321
612.0000000000000,0.03302228268760297,0.03606854080564962
613.0000000000000,0.03251722402855922,0.03569107363782914
614.0000000000000,0.03202655520195745,0.03532546302069252
615.0000000000000,0.03154756924152397,0.03496463546088949
616.0000000000000,0.03109764505285417,0.03463242236931750
617.0000000000000,0.03067209568776179,0.03431693912704677
618.0000000000000,0.03027060296011233,0.03402085530821336
619.0000000000000,0.02991460811784610,0.03376636699442309
620.0000000000000,0.02960586165121228,0.03354504510342472
621.0000000000000,0.02932646584966055,0.03334974514469719
622.0000000000000,0.02910047716488069,0.03319622085840619
623.0000000000000,0.02890045605828308,0.03306037021614140
624.0000000000000,0.02872637976607659,0.03294527987279576
625.0000000000000,0.02859881418130155,0.03286576755155880
626.0000000000000,0.02848536832429253,0.03279908858240912
627.0000000000000,0.02840519720413211,0.03275761975177119
628.0000000000000,0.02834651889407688,0.03273165168232518
629.0000000000000,0.02827854190518742,0.03269952068791111
630.0000000000000,0.02822211964422124,0.03267656901618935
631.0000000000000,0.02814368856818632,0.03263582895407917
632.0000000000000,0.02803299866724538,0.03256802828329434
633.0000000000000,0.02789150963565917,0.03247819902941634
634.0000000000000,0.02769982548276347,0.03234814285595762
635.0000000000000,0.02744837400548108,0.03217320773248754
636.0000000000000,0.02715073958742167,0.03195975226481821
637.0000000000000,0.02678215767749225,0.03169422619389954
638.0000000000000,0.02636846764155527,0.03139334552339945
639.0000000000000,0.02590549734012244,0.03105432469439537
640.0000000000000,0.02541147460510425,0.03069132889770020
641.0000000000000,0.02489820333756561,0.03031686118012729
642.0000000000000,0.02437054531347719,0.02993252721567600
643.0000000000000,0.02384124870121999,0.02955085089548332
644.0000000000000,0.02332261081171057,0.02918117699239406
645.0000000000000,0.02282579892098213,0.02882616906555856
646.0000000000000,0.02235834271073637,0.02849843260846612
647.0000000000000,0.02193137021237473,0.02820272183606619
648.0000000000000,0.02154537640039922,0.02793923463935390
649.0000000000000,0.02120522337764090,0.02770757013874981
650.0000000000000,0.02090751397170607,0.02751169070846720
651.0000000000000,0.02065601504986465,0.02735499401326110
652.0000000000000,0.02042788419455609,0.02721523967609133
653.0000000000000,0.02021078337600113,0.02708233610365225
654.0000000000000,0.01999392473357041,0.02695322815810215
655.0000000000000,0.01976634226522206,0.02681702857814566
656.0000000000000,0.01952184371369752,0.02667642374789553
657.0000000000000,0.01925336821882481,0.02652141517693667
658.0000000000000,0.01896754582433772,0.02635714341972445
659.0000000000000,0.01866835484493390,0.02618486550444683
660.0000000000000,0.01836474277323417,0.02601544808448311
661.0000000000000,0.01806063724239929,0.02584516077674816
662.0000000000000,0.01777637872315390,0.02569260121648910
663.0000000000000,0.01751870533216052,0.02556618939205145
664.0000000000000,0.01728922314808720,0.02546207153964169
665.0000000000000,0.01709918731782241,0.02538817118579873
666.0000000000000,0.01694418684483048,0.02534126807962501
667.0000000000000,0.01682863365168019,0.02532110528751355
668.0000000000000,0.01675568294121710,0.02533535689672463
669.0000000000000,0.01671230638656535,0.02536799153759093
670.0000000000000,0.01670182327261690,0.02542722517545197
671.0000000000000,0.01671562424842660,0.02550176313498945
672.0000000000000,0.01675302827596983,0.02559010020845452
673.0000000000000,0.01681693324101617,0.02570149045946916
674.0000000000000,0.01689922603037790,0.02582236794387771
675.0000000000000,0.01699934206370724,0.02595816066844552
676.0000000000000,0.01712114311438551,0.02611077122925463
677.0000000000000,0.01725932524446076,0.02627329076676142
678.0000000000000,0.01741664419794127,0.02647649312503043
679.0000000000000,0.01759666809308053,0.02666374757984069
680.0000000000000,0.01780003845451543,0.02685995798709983
681.0000000000000,0.01803669362105732,0.02707214077990894
682.0000000000000,0.01830857255330130,0.02729791192049339
683.0000000000000,0.01863668859255079,0.02756183364154457
684.0000000000000,0.01905255485334521,0.02786322133616855
685.0000000000000,0.01957988282752565,0.02824127357685424
686.0000000000000,0.02026495932533919,0.02871648172081446
687.0000000000000,0.02117498490646958,0.02936126268259386
688.0000000000000,0.02236783238161252,0.03022503093576285
689.0000000000000,0.02389913863023337,0.03136002373866757
690.0000000000000,0.02584024891733728,0.03284147948709506
691.0000000000000,0.02823402161808980,0.03470314303695705
692.0000000000000,0.03111372156417120,0.03698383284955363
693.0000000000000,0.03450329587969503,0.03971384419306419
694.0000000000000,0.03840685090403511,0.04290381971931219
695.0000000000000,0.04283248717999033,0.04655819901915496
696.0000000000000,0.04773140646164352,0.05064730882743539
697.0000000000000,0.05311235572192596,0.05517997602300993
698.0000000000000,0.05891000852141980,0.06009712220634063
699.0000000000000,0.06510392898512704,0.06533728388153350
700.0000000000000,0.07161445552802299,0.07093231571570383
701.0000000000000,0.07842916275106979,0.07681397257915885
702.0000000000000,0.08539439576530289,0.08285074102843565
703.0000000000000,0.09255228645667632,0.08906901097594253
704.0000000000000,0.09983427816783641,0.09540021304743755
705.0000000000000,0.1071695595697305,0.1018156782519136
706.0000000000000,0.1145938618073800,0.1083166312431369
707.0000000000000,0.1220888379079390,0.1148977432950733
708.0000000000000,0.1296218184240640,0.1215936487634816
709.0000000000000,0.1372161816497388,0.1283459717377933
710.0000000000000,0.1449536603273429,0.1352074858956056
711.0000000000000,0.1527338699429279,0.1421480293409032
712.0000000000000,0.1606728048387690,0.1491863705845243
713.0000000000000,0.1687170669343324,0.1563425716213672
714.0000000000000,0.1768744836537720,0.1636260596706883
715.0000000000000,0.1851502185496793,0.1709982787643284
716.0000000000000,0.1935669546202450,0.1785082983774438
717.0000000000000,0.2019963773689179,0.1861003081390149
718.0000000000000,0.2105490808909449,0.1937510174770804
719.0000000000000,0.2191484503524110,0.2015272674219390
720.0000000000000,0.2277977409931520,0.2093280113580153
721.0000000000000,0.2365646831602914,0.2172021294072002
722.0000000000000,0.2453528474286389,0.2251157843725122
723.0000000000000,0.2540872910420379,0.2330222935898699
724.0000000000000,0.2628035043864276,0.2408920479367567
725.0000000000000,0.2715377524711784,0.2487738768945287
726.0000000000000,0.2800738460673523,0.2565232712657558
727.0000000000000,0.2885785800135778,0.2642311850690952
728.0000000000000,0.2968663356644377,0.2717844550526835
729.0000000000000,0.3051425869877529,0.2792206409021086
730.0000000000000,0.3132283390327861,0.2865087960057693
731.0000000000000,0.3209799241007993,0.2935094342271708
732.0000000000000,0.3286528681489807,0.3004010029143351
733.0000000000000,0.3360133189540209,0.3070750114546039
734.0000000000000,0.3430501938065402,0.3134418174872651
735.0000000000000,0.3498236442775635,0.3195660215590949
736.0000000000000,0.3562940310736404,0.3254407704417824
737.0000000000000,0.3624688715792488,0.3310724296417463
738.0000000000000,0.3684342834665334,0.3364157538416959
739.0000000000000,0.3740358806771137,0.3415276086253066
740.0000000000000,0.3794094253563160,0.3463423285353617
741.0000000000000,0.3844273529633551,0.3508645442116101
742.0000000000000,0.3890929238605836,0.3551351527835311
743.0000000000000,0.3934284570265534,0.3591171168918740
744.0000000000000,0.3975368168939548,0.3628651943399839
745.0000000000000,0.4013232716417293,0.3663506212601561
